,x,y,angle
0,4.42614,0.53247,0.019438784411506857
1,4.5544,0.52152,0.24246281438400005
2,4.68255,0.50931,0.2722775939581671
3,4.81076,0.49753,0.3091619104779202
4,4.93902,0.48632,0.3603692348135893
5,5.06732,0.47571,0.3747114031449943
6,5.19568,0.46577,0.3567325502860536
7,5.3241,0.45666,0.40553656973103797
8,5.45258,0.44845,0.5635126301237007
9,5.58111,0.44097,0.7959577641171154
10,5.70968,0.43433,1.10056537851613
11,5.83831,0.42892,1.5557737896374648
12,5.967,0.42527,2.287619633739631
13,6.09574,0.42402,3.3487301626955954
14,6.22446,0.4261,4.640824328541358
15,6.35299,0.4331,5.913479635871747
16,6.48093,0.44746,6.888661041733431
17,6.60721,0.4721,7.404156044474268
18,6.73026,0.50985,7.551928613956411
19,6.84771,0.56229,7.670341755071798
20,6.95729,0.62972,8.020438094682536
21,7.05709,0.71091,8.570000599910113
22,7.14522,0.80459,8.855452889126163
23,7.21964,0.90958,8.427649601748849
24,7.27739,1.02443,7.33393987175404
25,7.31626,1.14706,5.873360520404947
26,7.33643,1.27409,4.258659209209552
27,7.33996,1.40272,2.2305361508686405
28,7.33038,1.53106,-0.14635528449100357
29,7.31111,1.65834,-1.8189712572255698
30,7.2863,1.78468,-2.331305178216252
31,7.26243,1.91117,-2.2930767274328647
32,7.24352,2.0385,-1.9505759514227712
33,7.2299,2.16652,-1.2658957530443087
34,7.22151,2.29499,-0.6788049181078322
35,7.21789,2.42367,-0.746648638008106
36,7.217,2.55241,-1.6171853452248246
37,7.21725,2.68114,-2.5498510887074923
38,7.21859,2.8099,-2.631119412129112
39,7.22332,2.93855,-2.0848830363380335
40,7.2347,3.06674,-1.1945094867103285
41,7.25224,3.1943,0.5548098099567592
42,7.27431,3.32113,3.136730696900984
43,7.29969,3.44734,5.757433115481488
44,7.32449,3.57365,7.68794779875162
45,7.34222,3.70119,8.607868433114684
46,7.34671,3.82968,8.66337750324501
47,7.33317,3.95766,8.225651016847273
48,7.30027,4.08198,7.737630982483972
49,7.24865,4.19979,7.508239954233603
50,7.18078,4.30905,7.544553248435012
51,7.0989,4.4083,7.586731307248311
52,7.00491,4.49618,7.370290193977375
53,6.90023,4.5709,6.840702756196859
54,6.78647,4.63101,6.032510575592927
55,6.66588,4.67586,5.108149663169031
56,6.54074,4.7059,4.520336346851706
57,6.41317,4.72247,4.363985913434124
58,6.28454,4.72782,4.018726419469698
59,6.15587,4.72355,3.2953898504914
60,6.02801,4.70921,2.6021497091478607
61,5.90147,4.68558,2.017948605844732
62,5.77643,4.65489,1.0886765218370311
63,5.65291,4.61862,-0.8459868531558593
64,5.5308,4.57797,-3.381594940813811
65,5.40964,4.53432,-5.170297808139824
66,5.28814,4.49173,-5.866113910526971
67,5.16417,4.4573,-6.005679269219676
68,5.03747,4.4348,-5.949373201160491
69,4.90908,4.42564,-5.796281703951681
70,4.78046,4.43003,-5.459228515510173
71,4.65305,4.44776,-4.498806656852363
72,4.52803,4.47835,-2.455559366839856
73,4.40652,4.52091,0.4439616537728479
74,4.28918,4.57365,3.3537933883357582
75,4.17427,4.63179,5.286436418221547
76,4.05905,4.68919,5.74753315579773
77,3.94041,4.73902,4.933470909481295
78,3.81737,4.7769,3.4824678062191086
79,3.6911,4.80143,2.026209533029539
80,3.56305,4.81469,0.8269592939006923
81,3.43444,4.82025,0.08159229009114585
82,3.3057,4.82139,-0.08678638201582058
83,3.17696,4.82089,-0.13351418048812602
84,3.04822,4.82066,0.0014808852409598635
85,3.04822,4.82066,0.004450318047237357
86,2.91947,4.82088,0.032264832790044794
87,2.79073,4.8211,0.065642303988908
88,2.66198,4.82131,0.017801059755885588
89,2.53324,4.8215,-0.04339073592072934
90,2.40449,4.82145,0.006675538766174358
91,2.27575,4.82131,0.035604190383875495
92,2.14701,4.82143,-0.03671559232061216
93,2.01827,4.82151,-0.020026614792823045
94,1.88952,4.82135,0.06230676945653607
95,1.76078,4.82139,-0.014465170799318736
96,1.63204,4.8216,-0.16799716413609478
97,1.50328,4.82145,-0.10679978097388698
98,1.37454,4.82129,0.3627232883169579
99,1.24582,4.82164,1.0148548055937345
100,1.11706,4.82249,1.4672821481540546
101,0.98829,4.82279,2.3023205909225544
102,0.85963,4.82043,4.073129845626192
103,0.73102,4.81482,5.73412099430557
104,0.60254,4.80519,6.531845166346922
105,0.47533,4.78623,7.092201302297847
106,0.35086,4.75376,7.570334513125869
107,0.23074,4.70744,7.530872939212634
108,0.11731,4.64677,7.071741307942888
109,0.0132,4.57125,6.571776131387669
110,-0.08005,4.48258,6.297867364093899
111,-0.16162,4.38309,6.3028889092784315
112,-0.23145,4.27499,6.3666063095593035
113,-0.28916,4.15999,6.016272122608652
114,-0.33396,4.03934,4.847199653867957
115,-0.36492,3.91447,3.6374114615689597
116,-0.382,3.78692,3.3191746817077252
117,-0.38788,3.65831,3.842004435475263
118,-0.38691,3.52942,5.1932203198169535
119,-0.37823,3.40084,6.754931663788715
120,-0.36202,3.27309,7.504826395325024
121,-0.3343,3.14754,7.217202930656382
122,-0.2915,3.02637,6.554274218247656
123,-0.23256,2.91201,6.464422910280682
124,-0.15929,2.80587,7.211857582322279
125,-0.07488,2.70853,7.832555200681408
126,0.01953,2.62104,7.138540441761658
127,0.12386,2.54597,5.383554619344302
128,0.23814,2.48707,3.5475552491514657
129,0.35908,2.44313,2.04812076082228
130,0.48372,2.41084,0.2665742613862995
131,0.61002,2.38583,-2.356561284135255
132,0.73711,2.36546,-5.181550329835841
133,0.86442,2.3466,-7.337973560822374
134,0.99091,2.32244,-8.436161462341097
135,1.11453,2.28664,-8.594059599347357
136,1.2321,2.23466,-8.178621048163233
137,1.34058,2.16554,-7.437147281096646
138,1.43733,2.08071,-6.5191659211643405
139,1.52092,1.98292,-5.608784737089764
140,1.59099,1.8751,-4.892995521231959
141,1.64848,1.75994,-4.105235706957117
142,1.69455,1.6397,-2.1577194328679266
143,1.73034,1.51615,0.7622177299210444
144,1.75658,1.39016,2.4476989175814583
145,1.77663,1.26284,3.025238994940965
146,1.79973,1.13631,4.642403969886845
147,1.82957,1.01122,6.507368687919629
148,1.8644,0.887,6.896620688590289
149,1.90882,0.76627,6.550781144120884
150,1.96812,0.65233,6.767048057775316
151,2.04087,0.54618,7.811774494024174
152,2.12507,0.4487,8.69850896922984
153,2.21965,0.36139,8.465934790159418
154,2.32488,0.2879,7.825154873866755
155,2.44086,0.23215,7.487945544673226
156,2.56395,0.19401,7.216511481526923
157,2.69066,0.17272,6.776316295606989
158,2.81917,0.16817,6.027530049856791
159,2.94743,0.17985,4.801314111013166
160,3.07323,0.20677,2.8654196789153814
161,3.19543,0.24696,0.04104054134869219
162,3.31378,0.29762,-3.1087429942182623
163,3.42923,0.35467,-5.442446681530143
164,3.54434,0.41216,-6.067714243579852
165,3.6628,0.46268,-5.050096607198233
166,3.78561,0.50091,-3.727406654599571
167,3.91208,0.52447,-1.5650673843794627
168,4.04028,0.53699,-1.281283548415035
169,4.16887,0.54167,-2.128281807574351
170,4.29757,0.53973,-1.2860530362287186
171,4.29757,0.53973,-0.6452468388780566
